# Katz, Weinberg, Hernquist (1996) tabulated cooling function
# column 1: temp [Kelvin]
# column 2: Lambda_net [erg cm^3/s]
# (positive denotes heating, negative denotes cooling)
3.1623e+03  1.9393e-25
3.3113e+03  1.9267e-25
3.4674e+03  1.9137e-25
3.6308e+03  1.9004e-25
3.8019e+03  1.8866e-25
3.9811e+03  1.8724e-25
4.1687e+03  1.8577e-25
4.3652e+03  1.8426e-25
4.5709e+03  1.8270e-25
4.7863e+03  1.8109e-25
5.0119e+03  1.7942e-25
5.2481e+03  1.7769e-25
5.4954e+03  1.7588e-25
5.7544e+03  1.7397e-25
6.0256e+03  1.7190e-25
6.3096e+03  1.6950e-25
6.6069e+03  1.6649e-25
6.9183e+03  1.6224e-25
7.2444e+03  1.5553e-25
7.5858e+03  1.4404e-25
7.9433e+03  1.2353e-25
8.3176e+03  8.6483e-26
8.7096e+03  2.0005e-26
9.1201e+03  -9.7345e-26
9.5499e+03  -3.0021e-25
1.0000e+04  -6.4310e-25
1.0471e+04  -1.2097e-24
1.0965e+04  -2.1263e-24
1.1482e+04  -3.5807e-24
1.2023e+04  -5.8527e-24
1.2589e+04  -9.3600e-24
1.3183e+04  -1.4742e-23
1.3804e+04  -2.2988e-23
1.4454e+04  -3.5546e-23
1.5136e+04  -5.4097e-23
1.5849e+04  -7.9228e-23
1.6596e+04  -1.0809e-22
1.7378e+04  -1.3433e-22
1.8197e+04  -1.5206e-22
1.9055e+04  -1.5925e-22
1.9953e+04  -1.5748e-22
2.0893e+04  -1.4976e-22
2.1878e+04  -1.3888e-22
2.2909e+04  -1.2684e-22
2.3988e+04  -1.1489e-22
2.5119e+04  -1.0367e-22
2.6303e+04  -9.3505e-23
2.7542e+04  -8.4467e-23
2.8840e+04  -7.6491e-23
3.0200e+04  -6.9439e-23
3.1623e+04  -6.3156e-23
3.3113e+04  -5.7517e-23
3.4674e+04  -5.2440e-23
3.6308e+04  -4.7876e-23
3.8019e+04  -4.3799e-23
3.9811e+04  -4.0186e-23
4.1687e+04  -3.7032e-23
4.3652e+04  -3.4334e-23
4.5709e+04  -3.2112e-23
4.7863e+04  -3.0403e-23
5.0119e+04  -2.9267e-23
5.2481e+04  -2.8792e-23
5.4954e+04  -2.9090e-23
5.7544e+04  -3.0285e-23
6.0256e+04  -3.2499e-23
6.3096e+04  -3.5807e-23
6.6069e+04  -4.0169e-23
6.9183e+04  -4.5361e-23
7.2444e+04  -5.0899e-23
7.5858e+04  -5.6082e-23
7.9433e+04  -6.0119e-23
8.3176e+04  -6.2399e-23
8.7096e+04  -6.2679e-23
9.1201e+04  -6.1126e-23
9.5499e+04  -5.8178e-23
1.0000e+05  -5.4363e-23
1.0471e+05  -5.0140e-23
1.0965e+05  -4.5851e-23
1.1482e+05  -4.1720e-23
1.2023e+05  -3.7866e-23
1.2589e+05  -3.4348e-23
1.3183e+05  -3.1179e-23
1.3804e+05  -2.8347e-23
1.4454e+05  -2.5830e-23
1.5136e+05  -2.3598e-23
1.5849e+05  -2.1621e-23
1.6596e+05  -1.9872e-23
1.7378e+05  -1.8322e-23
1.8197e+05  -1.6947e-23
1.9055e+05  -1.5728e-23
1.9953e+05  -1.4643e-23
2.0893e+05  -1.3678e-23
2.1878e+05  -1.2817e-23
2.2909e+05  -1.2048e-23
2.3988e+05  -1.1361e-23
2.5119e+05  -1.0745e-23
2.6303e+05  -1.0193e-23
2.7542e+05  -9.6976e-24
2.8840e+05  -9.2523e-24
3.0200e+05  -8.8519e-24
3.1623e+05  -8.4916e-24
3.3113e+05  -8.1672e-24
3.4674e+05  -7.8751e-24
3.6308e+05  -7.6119e-24
3.8019e+05  -7.3750e-24
3.9811e+05  -7.1618e-24
4.1687e+05  -6.9700e-24
4.3652e+05  -6.7977e-24
4.5709e+05  -6.6431e-24
4.7863e+05  -6.5047e-24
5.0119e+05  -6.3811e-24
5.2481e+05  -6.2711e-24
5.4954e+05  -6.1734e-24
5.7544e+05  -6.0872e-24
6.0256e+05  -6.0116e-24
6.3096e+05  -5.9456e-24
6.6069e+05  -5.8887e-24
6.9183e+05  -5.8401e-24
7.2444e+05  -5.7993e-24
7.5858e+05  -5.7658e-24
7.9433e+05  -5.7390e-24
8.3176e+05  -5.7185e-24
8.7096e+05  -5.7039e-24
9.1201e+05  -5.6949e-24
9.5499e+05  -5.6912e-24
1.0000e+06  -5.6924e-24
1.0471e+06  -5.6983e-24
1.0965e+06  -5.7087e-24
1.1482e+06  -5.7233e-24
1.2023e+06  -5.7419e-24
1.2589e+06  -5.7644e-24
1.3183e+06  -5.7906e-24
1.3804e+06  -5.8203e-24
1.4454e+06  -5.8535e-24
1.5136e+06  -5.8899e-24
1.5849e+06  -5.9296e-24
1.6596e+06  -5.9723e-24
1.7378e+06  -6.0181e-24
1.8197e+06  -6.0668e-24
1.9055e+06  -6.1184e-24
1.9953e+06  -6.1728e-24
2.0893e+06  -6.2300e-24
2.1878e+06  -6.2899e-24
2.2909e+06  -6.3526e-24
2.3988e+06  -6.4179e-24
2.5119e+06  -6.4858e-24
2.6303e+06  -6.5564e-24
2.7542e+06  -6.6297e-24
2.8840e+06  -6.7055e-24
3.0200e+06  -6.7840e-24
3.1623e+06  -6.8651e-24
3.3113e+06  -6.9488e-24
3.4674e+06  -7.0352e-24
3.6308e+06  -7.1242e-24
3.8019e+06  -7.2159e-24
3.9811e+06  -7.3104e-24
4.1687e+06  -7.4076e-24
4.3652e+06  -7.5075e-24
4.5709e+06  -7.6103e-24
4.7863e+06  -7.7159e-24
5.0119e+06  -7.8244e-24
5.2481e+06  -7.9358e-24
5.4954e+06  -8.0502e-24
5.7544e+06  -8.1676e-24
6.0256e+06  -8.2881e-24
6.3096e+06  -8.4117e-24
6.6069e+06  -8.5386e-24
6.9183e+06  -8.6687e-24
7.2444e+06  -8.8021e-24
7.5858e+06  -8.9389e-24
7.9433e+06  -9.0791e-24
8.3176e+06  -9.2229e-24
8.7096e+06  -9.3703e-24
9.1201e+06  -9.5214e-24
9.5499e+06  -9.6763e-24
1.0000e+07  -9.8350e-24
1.0471e+07  -9.9976e-24
1.0965e+07  -1.0164e-23
1.1482e+07  -1.0335e-23
1.2023e+07  -1.0510e-23
1.2589e+07  -1.0689e-23
1.3183e+07  -1.0873e-23
1.3804e+07  -1.1061e-23
1.4454e+07  -1.1254e-23
1.5136e+07  -1.1451e-23
1.5849e+07  -1.1654e-23
1.6596e+07  -1.1861e-23
1.7378e+07  -1.2073e-23
1.8197e+07  -1.2291e-23
1.9055e+07  -1.2513e-23
1.9953e+07  -1.2742e-23
2.0893e+07  -1.2975e-23
2.1878e+07  -1.3215e-23
2.2909e+07  -1.3460e-23
2.3988e+07  -1.3711e-23
2.5119e+07  -1.3969e-23
2.6303e+07  -1.4232e-23
2.7542e+07  -1.4502e-23
2.8840e+07  -1.4779e-23
3.0200e+07  -1.5062e-23
3.1623e+07  -1.5352e-23
3.3113e+07  -1.5649e-23
3.4674e+07  -1.5954e-23
3.6308e+07  -1.6265e-23
3.8019e+07  -1.6585e-23
3.9811e+07  -1.6912e-23
4.1687e+07  -1.7247e-23
4.3652e+07  -1.7590e-23
4.5709e+07  -1.7941e-23
4.7863e+07  -1.8301e-23
5.0119e+07  -1.8669e-23
5.2481e+07  -1.9047e-23
5.4954e+07  -1.9434e-23
5.7544e+07  -1.9830e-23
6.0256e+07  -2.0235e-23
6.3096e+07  -2.0650e-23
6.6069e+07  -2.1076e-23
6.9183e+07  -2.1511e-23
7.2444e+07  -2.1958e-23
7.5858e+07  -2.2415e-23
7.9433e+07  -2.2883e-23
8.3176e+07  -2.3362e-23
8.7096e+07  -2.3853e-23
9.1201e+07  -2.4355e-23
9.5499e+07  -2.4870e-23
1.0000e+08  -2.5397e-23
